# Time (Days) 	 Lbol (erg/s) 	 Mbol 	  U 
#  All magnitudes are given in the AB Magnitude System
5.500000e+00 1.000000e-10 0.000000e+00 0.000000e+00
6.500000e+00 1.000000e-10 0.000000e+00 0.000000e+00
7.500000e+00 1.000000e-10 0.000000e+00 0.000000e+00
8.500000e+00 1.000000e-10 0.000000e+00 0.000000e+00
9.500000e+00 1.000000e-10 0.000000e+00 0.000000e+00
1.050000e+01 1.000000e-10 0.000000e+00 0.000000e+00
1.150000e+01 1.000000e-10 0.000000e+00 0.000000e+00
1.250000e+01 1.000000e-10 0.000000e+00 0.000000e+00
1.350000e+01 1.000000e-10 0.000000e+00 0.000000e+00
1.450000e+01 1.000000e-10 0.000000e+00 0.000000e+00
1.550000e+01 1.000000e-10 0.000000e+00 0.000000e+00
1.650000e+01 1.000000e-10 0.000000e+00 0.000000e+00
1.750000e+01 1.000000e-10 0.000000e+00 0.000000e+00
1.850000e+01 1.000000e-10 0.000000e+00 0.000000e+00
1.950000e+01 1.000000e-10 0.000000e+00 0.000000e+00
2.050000e+01 1.000000e-10 0.000000e+00 0.000000e+00
2.150000e+01 1.000000e-10 0.000000e+00 0.000000e+00
2.250000e+01 1.000000e-10 0.000000e+00 0.000000e+00
2.350000e+01 1.000000e-10 0.000000e+00 0.000000e+00
2.450000e+01 1.000000e-10 0.000000e+00 0.000000e+00
2.550000e+01 3.113452e+36 -7.227956e+00 0.000000e+00
2.650000e+01 6.447278e+36 -8.018291e+00 0.000000e+00
2.750000e+01 1.173256e+37 -8.668332e+00 -4.133236e+00
2.850000e+01 3.948908e+37 -9.986042e+00 -4.093670e+00
2.950000e+01 1.286488e+38 -1.126836e+01 0.000000e+00
3.050000e+01 2.418094e+38 -1.195353e+01 -4.828276e+00
3.150000e+01 4.203846e+38 -1.255397e+01 -4.741776e+00
3.250000e+01 7.741861e+38 -1.321696e+01 -6.370199e+00
3.350000e+01 1.254464e+39 -1.374100e+01 -7.025777e+00
3.450000e+01 2.026095e+39 -1.426150e+01 -7.437991e+00
3.550000e+01 3.162392e+39 -1.474489e+01 -8.036558e+00
3.650000e+01 4.881322e+39 -1.521619e+01 -8.541712e+00
3.750000e+01 6.677144e+39 -1.555633e+01 -8.998837e+00
3.850000e+01 9.438121e+39 -1.593206e+01 -9.407626e+00
3.950000e+01 1.246687e+40 -1.623424e+01 -9.636807e+00
4.050000e+01 1.611529e+40 -1.651295e+01 -9.960421e+00
4.150000e+01 2.059735e+40 -1.677938e+01 -1.026467e+01
4.250000e+01 2.502714e+40 -1.699088e+01 -1.063894e+01
4.350000e+01 3.142119e+40 -1.723791e+01 -1.079697e+01
4.450000e+01 3.698360e+40 -1.741487e+01 -1.101334e+01
4.550000e+01 4.396555e+40 -1.760263e+01 -1.122368e+01
4.650000e+01 5.151497e+40 -1.777468e+01 -1.135662e+01
4.750000e+01 5.886873e+40 -1.791956e+01 -1.158214e+01
4.850000e+01 6.636526e+40 -1.804970e+01 -1.170908e+01
4.950000e+01 7.404338e+40 -1.816857e+01 -1.180949e+01
5.050000e+01 8.163714e+40 -1.827457e+01 -1.194555e+01
5.150000e+01 8.937388e+40 -1.837288e+01 -1.205213e+01
5.250000e+01 9.670288e+40 -1.845845e+01 -1.217392e+01
5.350000e+01 1.036741e+41 -1.853403e+01 -1.222407e+01
5.450000e+01 1.097281e+41 -1.859564e+01 -1.228241e+01
5.550000e+01 1.166110e+41 -1.866170e+01 -1.236971e+01
5.650000e+01 1.231976e+41 -1.872136e+01 -1.245031e+01
5.750000e+01 1.294851e+41 -1.877540e+01 -1.252389e+01
5.850000e+01 1.344799e+41 -1.881649e+01 -1.256254e+01
5.950000e+01 1.386174e+41 -1.884939e+01 -1.259901e+01
6.050000e+01 1.422156e+41 -1.887722e+01 -1.265015e+01
6.150000e+01 1.455154e+41 -1.890212e+01 -1.266925e+01
6.250000e+01 1.489790e+41 -1.892766e+01 -1.270914e+01
6.350000e+01 1.512649e+41 -1.894420e+01 -1.272909e+01
6.450000e+01 1.519634e+41 -1.894920e+01 -1.276722e+01
6.550000e+01 1.544248e+41 -1.896664e+01 -1.279228e+01
6.650000e+01 1.539935e+41 -1.896361e+01 -1.280865e+01
6.750000e+01 1.548920e+41 -1.896992e+01 -1.279887e+01
6.850000e+01 1.540871e+41 -1.896427e+01 -1.279479e+01
6.950000e+01 1.540355e+41 -1.896390e+01 -1.282549e+01
7.050000e+01 1.537054e+41 -1.896157e+01 -1.281657e+01
7.150000e+01 1.522765e+41 -1.895143e+01 -1.282706e+01
7.250000e+01 1.508014e+41 -1.894086e+01 -1.280049e+01
7.350000e+01 1.475354e+41 -1.891709e+01 -1.279898e+01
7.450000e+01 1.457224e+41 -1.890367e+01 -1.281394e+01
7.550000e+01 1.435515e+41 -1.888737e+01 -1.278716e+01
7.650000e+01 1.410113e+41 -1.886798e+01 -1.278255e+01
7.750000e+01 1.385612e+41 -1.884895e+01 -1.277969e+01
7.850000e+01 1.346338e+41 -1.881774e+01 -1.274366e+01
7.950000e+01 1.316148e+41 -1.879311e+01 -1.273782e+01
8.050000e+01 1.289414e+41 -1.877083e+01 -1.269977e+01
8.150000e+01 1.251069e+41 -1.873805e+01 -1.268190e+01
8.250000e+01 1.221456e+41 -1.871205e+01 -1.265731e+01
8.350000e+01 1.193338e+41 -1.868676e+01 -1.264651e+01
8.450000e+01 1.157885e+41 -1.865401e+01 -1.261980e+01
8.550000e+01 1.117656e+41 -1.861562e+01 -1.258707e+01
8.650000e+01 1.086985e+41 -1.858541e+01 -1.256730e+01
8.750000e+01 1.053557e+41 -1.855150e+01 -1.253671e+01
8.850000e+01 1.018056e+41 -1.851428e+01 -1.251408e+01
8.950000e+01 9.808711e+40 -1.847388e+01 -1.247149e+01
9.050000e+01 9.485004e+40 -1.843744e+01 -1.244705e+01
9.150000e+01 9.148848e+40 -1.839827e+01 -1.241826e+01
9.250000e+01 8.835192e+40 -1.836039e+01 -1.237286e+01
9.350000e+01 8.502914e+40 -1.831877e+01 -1.234940e+01
9.450000e+01 8.197367e+40 -1.827904e+01 -1.230570e+01
9.550000e+01 7.899273e+40 -1.823882e+01 -1.229127e+01
9.650000e+01 7.590078e+40 -1.819547e+01 -1.219655e+01
9.750000e+01 7.342942e+40 -1.815953e+01 -1.221526e+01
9.850000e+01 7.023709e+40 -1.811127e+01 -1.218508e+01
9.950000e+01 6.707923e+40 -1.806132e+01 -1.209658e+01
1.005000e+02 6.472282e+40 -1.802249e+01 -1.208860e+01
1.015000e+02 6.193146e+40 -1.797463e+01 -1.205551e+01
1.025000e+02 5.940598e+40 -1.792943e+01 -1.200198e+01
1.035000e+02 5.690746e+40 -1.788277e+01 -1.195798e+01
1.045000e+02 5.440662e+40 -1.783398e+01 -1.188898e+01
1.055000e+02 5.232532e+40 -1.779163e+01 -1.188014e+01
1.065000e+02 4.976990e+40 -1.773727e+01 -1.183978e+01
1.075000e+02 4.747494e+40 -1.768601e+01 -1.177636e+01
1.085000e+02 4.554341e+40 -1.764091e+01 -1.173137e+01
1.095000e+02 4.342619e+40 -1.758923e+01 -1.169804e+01
1.105000e+02 4.168621e+40 -1.754483e+01 -1.165364e+01
1.115000e+02 3.965444e+40 -1.749058e+01 -1.160861e+01
1.125000e+02 3.792953e+40 -1.744229e+01 -1.155461e+01
1.135000e+02 3.641337e+40 -1.739800e+01 -1.150025e+01
1.145000e+02 3.460523e+40 -1.734270e+01 -1.147769e+01
1.155000e+02 3.292271e+40 -1.728859e+01 -1.140779e+01
1.165000e+02 3.141515e+40 -1.723770e+01 -1.139965e+01
1.175000e+02 2.956541e+40 -1.717181e+01 -1.132616e+01
1.185000e+02 2.840119e+40 -1.712819e+01 -1.128229e+01
1.195000e+02 2.720788e+40 -1.708159e+01 -1.122067e+01
1.205000e+02 2.592130e+40 -1.702899e+01 -1.115305e+01
1.215000e+02 2.445426e+40 -1.696574e+01 -1.111592e+01
1.225000e+02 2.323830e+40 -1.691036e+01 -1.104034e+01
1.235000e+02 2.208036e+40 -1.685487e+01 -1.096940e+01
1.245000e+02 2.107245e+40 -1.680414e+01 -1.094378e+01
1.255000e+02 1.981854e+40 -1.673753e+01 -1.089548e+01
1.265000e+02 1.877940e+40 -1.667905e+01 -1.083683e+01
1.275000e+02 1.802247e+40 -1.663439e+01 -1.076428e+01
1.285000e+02 1.699207e+40 -1.657047e+01 -1.071750e+01
1.295000e+02 1.609508e+40 -1.651158e+01 -1.066256e+01
1.305000e+02 1.544898e+40 -1.646710e+01 -1.064197e+01
1.315000e+02 1.464003e+40 -1.640870e+01 -1.058218e+01
1.325000e+02 1.374097e+40 -1.633989e+01 -1.049101e+01
1.335000e+02 1.298604e+40 -1.627854e+01 -1.043309e+01
1.345000e+02 1.223139e+40 -1.621354e+01 -1.035305e+01
1.355000e+02 1.163638e+40 -1.615939e+01 -1.025929e+01
1.365000e+02 1.097274e+40 -1.609564e+01 -1.026163e+01
1.375000e+02 1.044971e+40 -1.604261e+01 -1.021816e+01
1.385000e+02 9.811732e+39 -1.597421e+01 -1.013020e+01
1.395000e+02 9.258532e+39 -1.591121e+01 -1.007310e+01
1.405000e+02 8.794912e+39 -1.585543e+01 -1.000975e+01
1.415000e+02 8.334306e+39 -1.579702e+01 -9.979665e+00
1.425000e+02 7.826305e+39 -1.572874e+01 -9.918630e+00
1.435000e+02 7.460969e+39 -1.567684e+01 -9.842627e+00
1.445000e+02 7.006464e+39 -1.560860e+01 -9.785684e+00
1.455000e+02 6.663088e+39 -1.555404e+01 -9.670513e+00
1.465000e+02 6.268420e+39 -1.548775e+01 -9.700688e+00
1.475000e+02 5.887806e+39 -1.541973e+01 -9.549347e+00
1.485000e+02 5.551954e+39 -1.535596e+01 -9.596590e+00
1.495000e+02 5.127842e+39 -1.526969e+01 -9.467634e+00
1.505000e+02 5.033894e+39 -1.524961e+01 -9.428892e+00
1.515000e+02 4.671844e+39 -1.516857e+01 -9.356171e+00
1.525000e+02 4.469940e+39 -1.512060e+01 -9.265996e+00
1.535000e+02 4.053900e+39 -1.501453e+01 -9.176581e+00
1.545000e+02 3.782008e+39 -1.493916e+01 -9.067056e+00
1.555000e+02 3.668591e+39 -1.490610e+01 -9.084673e+00
1.565000e+02 3.415891e+39 -1.482861e+01 -9.056587e+00
1.575000e+02 3.157813e+39 -1.474332e+01 -9.019838e+00
1.585000e+02 3.105307e+39 -1.472511e+01 -8.898515e+00
1.595000e+02 2.842252e+39 -1.462901e+01 -8.844645e+00
1.605000e+02 2.679185e+39 -1.456486e+01 -8.685401e+00
1.615000e+02 2.575626e+39 -1.452206e+01 -8.635050e+00
1.625000e+02 2.315610e+39 -1.440651e+01 -8.621250e+00
1.635000e+02 2.215396e+39 -1.435848e+01 -8.600753e+00
1.645000e+02 2.041184e+39 -1.426956e+01 -8.412865e+00
1.655000e+02 1.911058e+39 -1.419803e+01 -8.424372e+00
1.665000e+02 1.800423e+39 -1.413329e+01 -8.255290e+00
1.675000e+02 1.675876e+39 -1.405545e+01 -8.260032e+00
1.685000e+02 1.599277e+39 -1.400466e+01 -8.191412e+00
1.695000e+02 1.509858e+39 -1.394219e+01 -8.114468e+00
1.705000e+02 1.410096e+39 -1.386797e+01 -8.093401e+00
1.715000e+02 1.301718e+39 -1.378114e+01 -8.067126e+00
1.725000e+02 1.212755e+39 -1.370428e+01 -7.852578e+00
1.735000e+02 1.149108e+39 -1.364575e+01 -7.758557e+00
1.745000e+02 1.088677e+39 -1.358710e+01 -7.754249e+00
1.755000e+02 1.020669e+39 -1.351706e+01 -7.701603e+00
1.765000e+02 9.590163e+38 -1.344942e+01 -7.533072e+00
1.775000e+02 8.531976e+38 -1.332247e+01 -7.551065e+00
1.785000e+02 8.386675e+38 -1.330382e+01 -7.432385e+00
1.795000e+02 7.510649e+38 -1.318404e+01 -7.224160e+00
1.805000e+02 7.380436e+38 -1.316506e+01 -7.289268e+00
1.815000e+02 6.668299e+38 -1.305489e+01 -7.152573e+00
1.825000e+02 6.326813e+38 -1.299781e+01 -7.103769e+00
1.835000e+02 5.911010e+38 -1.292400e+01 -7.035823e+00
1.845000e+02 5.363534e+38 -1.281848e+01 -7.055206e+00
1.855000e+02 5.386549e+38 -1.282313e+01 -7.053653e+00
1.865000e+02 5.133992e+38 -1.277099e+01 -6.960235e+00
1.875000e+02 4.169895e+38 -1.254516e+01 -6.707234e+00
1.885000e+02 4.140079e+38 -1.253737e+01 -6.542127e+00
1.895000e+02 3.741398e+38 -1.242743e+01 -6.496965e+00
1.905000e+02 3.442512e+38 -1.233704e+01 -6.356327e+00
1.915000e+02 3.420211e+38 -1.232998e+01 -6.538460e+00
1.925000e+02 3.041368e+38 -1.220252e+01 -6.362173e+00
1.935000e+02 2.804465e+38 -1.211448e+01 -6.279014e+00
1.945000e+02 2.822579e+38 -1.212147e+01 -6.126097e+00
1.955000e+02 2.605833e+38 -1.203472e+01 -6.181583e+00
1.965000e+02 2.298905e+38 -1.189865e+01 -6.055743e+00
1.975000e+02 2.013662e+38 -1.175482e+01 -5.820030e+00
1.985000e+02 2.055305e+38 -1.177704e+01 -5.906934e+00
1.995000e+02 1.807617e+38 -1.163762e+01 -5.469928e+00
2.005000e+02 1.818319e+38 -1.164403e+01 -5.843663e+00
2.015000e+02 1.558232e+38 -1.147643e+01 -5.722130e+00
2.025000e+02 1.506955e+38 -1.144010e+01 -5.657775e+00
2.035000e+02 1.466456e+38 -1.141052e+01 -5.679221e+00
2.045000e+02 1.388346e+38 -1.135109e+01 -5.283350e+00
2.055000e+02 1.214807e+38 -1.120612e+01 -5.247038e+00
2.065000e+02 1.114324e+38 -1.111238e+01 -4.988096e+00
2.075000e+02 1.036907e+38 -1.103420e+01 -4.977433e+00
2.085000e+02 9.279074e+37 -1.091361e+01 -5.277110e+00
2.095000e+02 7.875672e+37 -1.073557e+01 -4.929892e+00
2.105000e+02 7.495324e+37 -1.068183e+01 -4.974583e+00
2.115000e+02 7.964282e+37 -1.074772e+01 -4.527416e+00
2.125000e+02 7.382043e+37 -1.066529e+01 -4.528049e+00
2.135000e+02 7.060247e+37 -1.061690e+01 -4.477252e+00
2.145000e+02 5.833072e+37 -1.040959e+01 -4.161273e+00
2.155000e+02 5.813274e+37 -1.040590e+01 -4.896955e+00
2.165000e+02 4.872193e+37 -1.021416e+01 -4.501212e+00
2.175000e+02 4.765967e+37 -1.019023e+01 -4.336306e+00
2.185000e+02 5.044638e+37 -1.025193e+01 -4.480769e+00
2.195000e+02 4.329130e+37 -1.008585e+01 -4.132801e+00
2.205000e+02 4.050963e+37 -1.001375e+01 -4.315240e+00
2.215000e+02 3.543720e+37 -9.868499e+00 -4.071169e+00
2.225000e+02 3.919440e+37 -9.977910e+00 -3.986214e+00
2.235000e+02 2.909172e+37 -9.654273e+00 -4.246608e+00
2.245000e+02 3.241364e+37 -9.771670e+00 -3.373532e+00
2.255000e+02 3.077136e+37 -9.715217e+00 -3.697427e+00
2.265000e+02 2.216317e+37 -9.358930e+00 -2.761179e+00
2.275000e+02 2.351645e+37 -9.423279e+00 -3.165112e+00
2.285000e+02 1.967983e+37 -9.229904e+00 -2.573744e+00
2.295000e+02 2.345501e+37 -9.420439e+00 -3.346757e+00
2.305000e+02 1.539506e+37 -8.963303e+00 -3.261469e+00
2.315000e+02 2.221151e+37 -9.361295e+00 -3.328886e+00
2.325000e+02 1.409361e+37 -8.867405e+00 -3.203294e+00
2.335000e+02 1.436311e+37 -8.887971e+00 -3.216298e+00
2.345000e+02 1.425154e+37 -8.879505e+00 -2.288046e+00
2.355000e+02 1.140438e+37 -8.637530e+00 -2.572267e+00
2.365000e+02 1.125669e+37 -8.623376e+00 -1.775342e+00
2.375000e+02 1.166791e+37 -8.662333e+00 -2.659899e+00
2.385000e+02 9.134285e+36 -8.396536e+00 -2.634713e+00
2.395000e+02 6.405974e+36 -8.011313e+00 -1.263921e+00
2.405000e+02 7.639775e+36 -8.202551e+00 -2.492093e+00
2.415000e+02 7.599126e+36 -8.196759e+00 -1.867022e+00
2.425000e+02 3.959115e+36 -7.488845e+00 -1.314281e+00
2.435000e+02 3.015614e+36 -7.193289e+00 -1.678672e+00
2.445000e+02 2.596015e+36 -7.030618e+00 0.000000e+00
2.455000e+02 7.850933e+35 -5.732153e+00 -7.584542e-01
2.465000e+02 5.616236e+34 -2.868463e+00 0.000000e+00
2.475000e+02 5.977416e+34 -2.936134e+00 0.000000e+00
2.485000e+02 1.014748e+32 0.000000e+00 0.000000e+00
2.495000e+02 3.457477e+29 0.000000e+00 0.000000e+00
